Wavelength (μm), R (B), T (B), A (B), R (C), T (C), A (C)
18.000000, 0.849375, 0.000004,                     0.150621, 0.805365, 0.000003, 0.194632
12.461538, 0.869417, 0.000001,                     0.130582, 0.704106, 0.000000, 0.295894
9.529412, 0.858235, 0.000001,                     0.141763, 0.508273, 0.000001, 0.491726
7.714286, 0.850913, 0.000001,                     0.149086, 0.326313, 0.000000, 0.673687
6.480000, 0.829990, 0.000000,                     0.170010, 0.226194, 0.000001, 0.773805
5.586207, 0.812451, 0.000001,                     0.187548, 0.196030, 0.000000, 0.803970
4.909091, 0.803907, 0.000000,                     0.196093, 0.188871, 0.000000, 0.811128
4.378378, 0.786813, 0.000001,                     0.213186, 0.191719, 0.000000, 0.808281
3.951220, 0.774063, 0.000000,                     0.225937, 0.196166, 0.000000, 0.803834
3.600000, 0.752733, 0.000000,                     0.247266, 0.200009, 0.000000, 0.799991
3.306122, 0.734179, 0.000000,                     0.265821, 0.203748, 0.000000, 0.796251
3.056604, 0.737300, 0.000000,                     0.262700, 0.204106, 0.000000, 0.795894
2.842105, 0.733388, 0.000000,                     0.266611, 0.202799, 0.000000, 0.797201
2.655738, 0.727474, 0.000000,                     0.272526, 0.199409, 0.000000, 0.800591
2.492308, 0.720751, 0.000000,                     0.279249, 0.194600, 0.000000, 0.805400
2.347826, 0.711268, 0.000000,                     0.288732, 0.187066, 0.000000, 0.812934
2.219178, 0.699673, 0.000001,                     0.300327, 0.177519, 0.000000, 0.822481
2.103896, 0.683284, 0.000000,                     0.316715, 0.164342, 0.000000, 0.835658
2.000000, 0.663962, 0.000001,                     0.336037, 0.147807, 0.000000, 0.852193
1.905882, 0.639830, 0.000001,                     0.360169, 0.126271, 0.000000, 0.873729
1.820225, 0.613892, 0.000001,                     0.386107, 0.099958, 0.000000, 0.900042
1.741935, 0.585330, 0.000001,                     0.414669, 0.068666, 0.000000, 0.931334
1.670103, 0.557243, 0.000001,                     0.442756, 0.035968, 0.000001, 0.964031
1.603960, 0.529719, 0.000001,                     0.470280, 0.010017, 0.000001, 0.989983
1.542857, 0.505387, 0.000002,                     0.494611, 0.006607, 0.000002, 0.993391
1.486239, 0.484918, 0.000002,                     0.515080, 0.041843, 0.000002, 0.958155
1.433628, 0.469546, 0.000003,                     0.530451, 0.116802, 0.000003, 0.883195
1.384615, 0.459991, 0.000003,                     0.540006, 0.212123, 0.000003, 0.787874
1.338843, 0.455910, 0.000005,                     0.544085, 0.304028, 0.000005, 0.695968
1.296000, 0.457746, 0.000005,                     0.542250, 0.381065, 0.000005, 0.618931
1.255814, 0.463667, 0.000007,                     0.536326, 0.441414, 0.000006, 0.558580
1.218045, 0.473798, 0.000008,                     0.526194, 0.488786, 0.000007, 0.511207
1.182482, 0.485472, 0.000011,                     0.514517, 0.525958, 0.000009, 0.474033
1.148936, 0.498847, 0.000013,                     0.501141, 0.556015, 0.000011, 0.443975
1.117241, 0.511321, 0.000019,                     0.488660, 0.580035, 0.000014, 0.419951
1.087248, 0.523420, 0.000023,                     0.476557, 0.599222, 0.000019, 0.400759
1.058824, 0.533177, 0.000034,                     0.466788, 0.613749, 0.000025, 0.386226
1.031847, 0.541338, 0.000044,                     0.458618, 0.623837, 0.000036, 0.376127
1.006211, 0.546552, 0.000065,                     0.453382, 0.629668, 0.000049, 0.370283
0.981818, 0.549494, 0.000090,                     0.450417, 0.630914, 0.000076, 0.369010
0.958580, 0.549383, 0.000137,                     0.450480, 0.628161, 0.000109, 0.371729
0.936416, 0.546564, 0.000201,                     0.453234, 0.620531, 0.000178, 0.379291
0.915254, 0.540576, 0.000326,                     0.459098, 0.609072, 0.000275, 0.390653
0.895028, 0.530912, 0.000531,                     0.468556, 0.592166, 0.000479, 0.407355
0.875676, 0.517178, 0.000943,                     0.481878, 0.570929, 0.000820, 0.428251
0.857143, 0.497472, 0.001726,                     0.500802, 0.542299, 0.001560, 0.456141
0.839378, 0.470722, 0.003426,                     0.525852, 0.506665, 0.003046, 0.490289
0.822335, 0.431764, 0.007196,                     0.561041, 0.457880, 0.006567, 0.535552
0.805970, 0.376398, 0.016498,                     0.607103, 0.392520, 0.015079, 0.592401
0.790244, 0.291983, 0.040555,                     0.667462, 0.297041, 0.037936, 0.665023
0.775120, 0.174002, 0.102637,                     0.723360, 0.166960, 0.098126, 0.734914
0.760563, 0.049562, 0.228761,                     0.721676, 0.036470, 0.223870, 0.739660
0.746544, 0.004669, 0.362535,                     0.632796, 0.002783, 0.353678, 0.643539
0.733032, 0.017213, 0.421749,                     0.561037, 0.026620, 0.403585, 0.569795
0.720000, 0.020734, 0.431078,                     0.548189, 0.031573, 0.409062, 0.559365
0.707424, 0.016415, 0.428733,                     0.554852, 0.025242, 0.404868, 0.569890
0.695279, 0.017322, 0.421019,                     0.561659, 0.024951, 0.397179, 0.577869
0.683544, 0.024691, 0.414321,                     0.560988, 0.031618, 0.388601, 0.579780
0.672199, 0.031392, 0.407927,                     0.560681, 0.038033, 0.380697, 0.581270
0.661224, 0.033140, 0.404057,                     0.562803, 0.038911, 0.374596, 0.586493
0.650602, 0.030624, 0.399094,                     0.570282, 0.035709, 0.368251, 0.596040
0.640316, 0.028551, 0.392108,                     0.579340, 0.032702, 0.360215, 0.607084
0.630350, 0.030334, 0.382300,                     0.587366, 0.033843, 0.349538, 0.616619
0.620690, 0.036044, 0.371943,                     0.592013, 0.038661, 0.338461, 0.622878
0.611321, 0.042126, 0.364173,                     0.593701, 0.043795, 0.329117, 0.627088
0.602230, 0.044517, 0.360447,                     0.595036, 0.044987, 0.323700, 0.631313
0.593407, 0.040401, 0.361343,                     0.598256, 0.039961, 0.321805, 0.638234
0.584838, 0.030235, 0.363866,                     0.605899, 0.029179, 0.321984, 0.648837
0.576512, 0.017115, 0.365196,                     0.617689, 0.016067, 0.320919, 0.663014
0.568421, 0.006121, 0.361354,                     0.632524, 0.005367, 0.316428, 0.678206
0.560554, 0.000680, 0.352482,                     0.646838, 0.000404, 0.307641, 0.691956
0.552901, 0.000879, 0.340437,                     0.658685, 0.001069, 0.296701, 0.702230
0.545455, 0.003803, 0.329287,                     0.666910, 0.004439, 0.286144, 0.709417
0.538206, 0.006042, 0.321439,                     0.672519, 0.007154, 0.278382, 0.714464
0.531148, 0.006048, 0.317535,                     0.676417, 0.007470, 0.273589, 0.718941
0.524272, 0.004926, 0.315773,                     0.679300, 0.006239, 0.270569, 0.723191
0.517572, 0.006346, 0.312308,                     0.681346, 0.006643, 0.266196, 0.727161
0.511041, 0.014017, 0.303678,                     0.682305, 0.012200, 0.257847, 0.729953
0.504673, 0.028560, 0.288310,                     0.683130, 0.023873, 0.244401, 0.731726
0.498462, 0.045713, 0.269034,                     0.685254, 0.038466, 0.227898, 0.733637
0.492401, 0.059273, 0.249735,                     0.690992, 0.050656, 0.211414, 0.737930
0.486486, 0.064259, 0.234255,                     0.701487, 0.056023, 0.197876, 0.746101
0.480712, 0.059775, 0.223830,                     0.716394, 0.053347, 0.188317, 0.758336
0.475073, 0.049026, 0.218320,                     0.732654, 0.045143, 0.182630, 0.772227
0.469565, 0.039967, 0.215674,                     0.744360, 0.037685, 0.179290, 0.783025
0.464183, 0.042731, 0.213109,                     0.744161, 0.039214, 0.176429, 0.784356
0.458924, 0.064421, 0.208093,                     0.727486, 0.055487, 0.172086, 0.772427
0.453782, 0.101367, 0.199767,                     0.698866, 0.084362, 0.165667, 0.749971
0.448753, 0.138812, 0.189496,                     0.671692, 0.114456, 0.157571, 0.727974
0.443836, 0.157935, 0.178579,                     0.663486, 0.130838, 0.148622, 0.720540
0.439024, 0.147436, 0.166799,                     0.685765, 0.123833, 0.138104, 0.738064
0.434316, 0.114195, 0.150741,                     0.735064, 0.099157, 0.123748, 0.777095
0.429708, 0.090934, 0.127038,                     0.782028, 0.082067, 0.103447, 0.814487
0.425197, 0.113929, 0.097375,                     0.788696, 0.099962, 0.079305, 0.820733
0.420779, 0.183271, 0.069056,                     0.747673, 0.153024, 0.056673, 0.790303
0.416452, 0.266590, 0.047435,                     0.685975, 0.217463, 0.039305, 0.743231
0.412214, 0.335187, 0.032869,                     0.631944, 0.270394, 0.027406, 0.702200
0.408060, 0.374818, 0.023548,                     0.601633, 0.299718, 0.019619, 0.680663
0.403990, 0.381078, 0.017511,                     0.601411, 0.301451, 0.014489, 0.684059
0.400000, 0.353670, 0.013490,                     0.632840, 0.276678, 0.011003, 0.712319
